#  Embedding energy in copper
#  Electron density        Energy (eV)
   4.0000000000000000E-003 -4.2223634820000004E-002
   8.0000000000000000E-003 -8.3627046759999999E-002
   1.2000000000000000E-002 -0.1242250732000000     
   1.6000000000000001E-002 -0.1640323413000000     
   2.0000000000000000E-002 -0.2030632702000000     
   2.3999999999999999E-002 -0.2413320730000000     
   2.8000000000000004E-002 -0.2788527581000000     
   3.2000000000000002E-002 -0.3156391319000000     
   3.5999999999999996E-002 -0.3517048003000000     
   4.0000000000000000E-002 -0.3870631707000000     
   4.3999999999999995E-002 -0.4217274539000000     
   4.7999999999999998E-002 -0.4557106658000000     
   5.2000000000000002E-002 -0.4890256297000001     
   5.6000000000000005E-002 -0.5216849779000000     
   6.0000000000000000E-002 -0.5537011534000000     
   6.4000000000000004E-002 -0.5850864121000000     
   6.8000000000000007E-002 -0.6158528246000000     
   7.1999999999999993E-002 -0.6460122777000000     
   7.5999999999999996E-002 -0.6755764767000000     
   8.0000000000000000E-002 -0.7045569468000000     
   8.4000000000000004E-002 -0.7329650351000000     
   8.7999999999999989E-002 -0.7608119127000000     
   9.1999999999999993E-002 -0.7881085758000000     
   9.5999999999999996E-002 -0.8148658482000000     
   0.1000000000000000      -0.8410943825000000     
   0.1040000000000000      -0.8668046623000000     
   0.1080000000000000      -0.8920070037000000     
   0.1120000000000000      -0.9167115572000000     
   0.1160000000000000      -0.9409283094999999     
   0.1200000000000000      -0.9646670846999999     
   0.1240000000000000      -0.9879375468999999     
   0.1280000000000000       -1.010749201000000     
   0.1320000000000000       -1.033111396000000     
   0.1360000000000000       -1.055033323000000     
   0.1400000000000000       -1.076524023000000     
   0.1440000000000000       -1.097592382000000     
   0.1480000000000000       -1.118247137000000     
   0.1520000000000000       -1.138496876000000     
   0.1560000000000000       -1.158350040000000     
   0.1600000000000000       -1.177814926000000     
   0.1640000000000000       -1.196899686000000     
   0.1680000000000000       -1.215612329000000     
   0.1720000000000000       -1.233960725000000     
   0.1760000000000000       -1.251952606000000     
   0.1800000000000000       -1.269595563000000     
   0.1840000000000000       -1.286897057000000     
   0.1880000000000000       -1.303864409000000     
   0.1920000000000000       -1.320504812000000     
   0.1960000000000000       -1.336825326000000     
   0.2000000000000000       -1.352832881000000     
   0.2040000000000000       -1.368534282000000     
   0.2080000000000000       -1.383936205000000     
   0.2120000000000000       -1.399045202000000     
   0.2160000000000000       -1.413867701000000     
   0.2200000000000000       -1.428410011000000     
   0.2240000000000000       -1.442678318000000     
   0.2280000000000000       -1.456678691000000     
   0.2320000000000000       -1.470417080000000     
   0.2360000000000000       -1.483899320000000     
   0.2400000000000000       -1.497131134000000     
   0.2440000000000000       -1.510118128000000     
   0.2480000000000000       -1.522865800000000     
   0.2520000000000000       -1.535379536000000     
   0.2560000000000000       -1.547664616000000     
   0.2600000000000000       -1.559726210000000     
   0.2640000000000000       -1.571569383000000     
   0.2680000000000000       -1.583199099000000     
   0.2720000000000000       -1.594620214000000     
   0.2760000000000000       -1.605837486000000     
   0.2800000000000000       -1.616855572000000     
   0.2840000000000000       -1.627679031000000     
   0.2880000000000000       -1.638312324000000     
   0.2920000000000000       -1.648759815000000     
   0.2960000000000000       -1.659025776000000     
   0.3000000000000000       -1.669114383000000     
   0.3040000000000000       -1.679029721000000     
   0.3080000000000000       -1.688775785000000     
   0.3120000000000000       -1.698356481000000     
   0.3160000000000000       -1.707775625000000     
   0.3200000000000000       -1.717036947000000     
   0.3240000000000000       -1.726144094000000     
   0.3280000000000000       -1.735100626000000     
   0.3320000000000000       -1.743910020000000     
   0.3360000000000000       -1.752575673000000     
   0.3400000000000000       -1.761100901000000     
   0.3440000000000000       -1.769488941000000     
   0.3480000000000000       -1.777742951000000     
   0.3520000000000000       -1.785866013000000     
   0.3560000000000000       -1.793861135000000     
   0.3600000000000000       -1.801731249000000     
   0.3640000000000000       -1.809479213000000     
   0.3680000000000000       -1.817107816000000     
   0.3720000000000000       -1.824619774000000     
   0.3760000000000000       -1.832017734000000     
   0.3800000000000000       -1.839304275000000     
   0.3840000000000000       -1.846481908000000     
   0.3880000000000000       -1.853553080000000     
   0.3920000000000000       -1.860520170000000     
   0.3960000000000000       -1.867385495000000     
   0.4000000000000000       -1.874151310000000     
   0.4040000000000000       -1.880819807000000     
   0.4080000000000000       -1.887393118000000     
   0.4120000000000000       -1.893873315000000     
   0.4160000000000000       -1.900262413000000     
   0.4200000000000000       -1.906562368000000     
   0.4240000000000000       -1.912775082000000     
   0.4280000000000000       -1.918902401000000     
   0.4320000000000000       -1.924946116000000     
   0.4360000000000000       -1.930907966000000     
   0.4400000000000000       -1.936789637000000     
   0.4440000000000000       -1.942592766000000     
   0.4480000000000000       -1.948318938000000     
   0.4520000000000000       -1.953969690000000     
   0.4560000000000000       -1.959546510000000     
   0.4600000000000001       -1.965050841000000     
   0.4640000000000001       -1.970484079000000     
   0.4680000000000001       -1.975847575000000     
   0.4720000000000000       -1.981142634000000     
   0.4760000000000000       -1.986370522000000     
   0.4800000000000000       -1.991532460000000     
   0.4840000000000000       -1.996629628000000     
   0.4880000000000000       -2.001663165000000     
   0.4920000000000000       -2.006634174000000     
   0.4960000000000000       -2.011543715000000     
   0.5000000000000000       -2.016392813000000     
   0.5040000000000000       -2.021182457000000     
   0.5080000000000000       -2.025913599000000     
   0.5120000000000000       -2.030587154000000     
   0.5160000000000000       -2.035204008000000     
   0.5200000000000000       -2.039765009000000     
   0.5240000000000000       -2.044270975000000     
   0.5280000000000000       -2.048722692000000     
   0.5320000000000000       -2.053120914000000     
   0.5360000000000000       -2.057466369000000     
   0.5400000000000000       -2.061759751000000     
   0.5440000000000000       -2.066001730000000     
   0.5480000000000000       -2.070192944000000     
   0.5520000000000000       -2.074334009000000     
   0.5560000000000000       -2.078425512000000     
   0.5600000000000001       -2.082468016000000     
   0.5640000000000000       -2.086462059000000     
   0.5680000000000000       -2.090408157000000     
   0.5720000000000000       -2.094306801000000     
   0.5760000000000000       -2.098158460000000     
   0.5800000000000000       -2.101963584000000     
   0.5840000000000000       -2.105722599000000     
   0.5880000000000000       -2.109435913000000     
   0.5920000000000000       -2.113103915000000     
   0.5960000000000000       -2.116726974000000     
   0.6000000000000000       -2.120305441000000     
   0.6040000000000000       -2.123839651000000     
   0.6080000000000000       -2.127329921000000     
   0.6120000000000000       -2.130776554000000     
   0.6160000000000000       -2.134179836000000     
   0.6200000000000000       -2.137540038000000     
   0.6240000000000000       -2.140857418000000     
   0.6280000000000000       -2.144132221000000     
   0.6320000000000000       -2.147364678000000     
   0.6360000000000000       -2.150555007000000     
   0.6400000000000000       -2.153703418000000     
   0.6440000000000000       -2.156810105000000     
   0.6480000000000000       -2.159875256000000     
   0.6520000000000000       -2.162899045000000     
   0.6560000000000000       -2.165881641000000     
   0.6600000000000001       -2.168823200000000     
   0.6640000000000001       -2.171723873000000     
   0.6680000000000001       -2.174583801000000     
   0.6720000000000001       -2.177403120000000     
   0.6760000000000001       -2.180181956000000     
   0.6800000000000001       -2.182920433000000     
   0.6840000000000001       -2.185618665000000     
   0.6879999999999999       -2.188276764000000     
   0.6920000000000000       -2.190894836000000     
   0.6959999999999999       -2.193472983000000     
   0.7000000000000000       -2.196011303000000     
   0.7039999999999999       -2.198509891000000     
   0.7080000000000000       -2.200968838000000     
   0.7119999999999999       -2.203388233000000     
   0.7160000000000000       -2.205768165000000     
   0.7199999999999999       -2.208108718000000     
   0.7240000000000000       -2.210409976000000     
   0.7279999999999999       -2.212672024000000     
   0.7320000000000000       -2.214894945000000     
   0.7359999999999999       -2.217078821000000     
   0.7400000000000000       -2.219223736000000     
   0.7440000000000000       -2.221329773000000     
   0.7480000000000000       -2.223397019000000     
   0.7520000000000000       -2.225425559000000     
   0.7560000000000000       -2.227415481000000     
   0.7600000000000000       -2.229366876000000     
   0.7640000000000001       -2.231279835000000     
   0.7680000000000000       -2.233154455000000     
   0.7720000000000001       -2.234990834000000     
   0.7760000000000000       -2.236789073000000     
   0.7800000000000001       -2.238549276000000     
   0.7840000000000000       -2.240271553000000     
   0.7880000000000001       -2.241956017000000     
   0.7920000000000000       -2.243602785000000     
   0.7960000000000001       -2.245211979000000     
   0.8000000000000000       -2.246783726000000     
   0.8040000000000001       -2.248318157000000     
   0.8080000000000000       -2.249815409000000     
   0.8120000000000001       -2.251275626000000     
   0.8160000000000000       -2.252698955000000     
   0.8199999999999999       -2.254085552000000     
   0.8240000000000000       -2.255435575000000     
   0.8279999999999999       -2.256749193000000     
   0.8320000000000000       -2.258026578000000     
   0.8359999999999999       -2.259267909000000     
   0.8400000000000000       -2.260473374000000     
   0.8440000000000000       -2.261643166000000     
   0.8480000000000000       -2.262777486000000     
   0.8520000000000000       -2.263876540000000     
   0.8560000000000000       -2.264940545000000     
   0.8600000000000000       -2.265969722000000     
   0.8640000000000001       -2.266964301000000     
   0.8680000000000000       -2.267924521000000     
   0.8720000000000001       -2.268850626000000     
   0.8760000000000000       -2.269742868000000     
   0.8800000000000001       -2.270601510000000     
   0.8840000000000000       -2.271426819000000     
   0.8880000000000001       -2.272219073000000     
   0.8920000000000000       -2.272978555000000     
   0.8960000000000001       -2.273705559000000     
   0.9000000000000000       -2.274400384000000     
   0.9040000000000001       -2.275063340000000     
   0.9080000000000000       -2.275694744000000     
   0.9120000000000001       -2.276294919000000     
   0.9160000000000000       -2.276864198000000     
   0.9200000000000001       -2.277402923000000     
   0.9240000000000000       -2.277911442000000     
   0.9280000000000001       -2.278390112000000     
   0.9320000000000000       -2.278839296000000     
   0.9360000000000001       -2.279259368000000     
   0.9399999999999999       -2.279650707000000     
   0.9440000000000000       -2.280013702000000     
   0.9480000000000000       -2.280348746000000     
   0.9520000000000000       -2.280656245000000     
   0.9559999999999999       -2.280936606000000     
   0.9600000000000000       -2.281190249000000     
   0.9640000000000001       -2.281417597000000     
   0.9680000000000000       -2.281619083000000     
   0.9719999999999999       -2.281795145000000     
   0.9760000000000000       -2.281946228000000     
   0.9800000000000001       -2.282072785000000     
   0.9840000000000000       -2.282175274000000     
   0.9879999999999999       -2.282254160000000     
   0.9920000000000000       -2.282309913000000     
   0.9960000000000001       -2.282343010000000     
    1.000000000000000       -2.282353935000000     
    1.004000000000000       -2.282343130000000     
    1.008000000000000       -2.282310866000000     
    1.012000000000000       -2.282257366000000     
    1.016000000000000       -2.282182853000000     
    1.020000000000000       -2.282087546000000     
    1.024000000000000       -2.281971662000000     
    1.028000000000000       -2.281835415000000     
    1.032000000000000       -2.281679019000000     
    1.036000000000000       -2.281502682000000     
    1.040000000000000       -2.281306613000000     
    1.044000000000000       -2.281091016000000     
    1.048000000000000       -2.280856097000000     
    1.052000000000000       -2.280602055000000     
    1.056000000000000       -2.280329089000000     
    1.060000000000000       -2.280037396000000     
    1.064000000000000       -2.279727171000000     
    1.068000000000000       -2.279398606000000     
    1.072000000000000       -2.279051891000000     
    1.076000000000000       -2.278687215000000     
    1.080000000000000       -2.278304763000000     
    1.084000000000000       -2.277904719000000     
    1.088000000000000       -2.277487267000000     
    1.092000000000000       -2.277052585000000     
    1.096000000000000       -2.276600851000000     
    1.100000000000000       -2.276132242000000     
    1.104000000000000       -2.275646931000000     
    1.108000000000000       -2.275145090000000     
    1.112000000000000       -2.274626889000000     
    1.116000000000000       -2.274092497000000     
    1.120000000000000       -2.273542080000000     
    1.124000000000000       -2.272975801000000     
    1.128000000000000       -2.272393823000000     
    1.132000000000000       -2.271796306000000     
    1.136000000000000       -2.271183409000000     
    1.140000000000000       -2.270555289000000     
    1.144000000000000       -2.269912101000000     
    1.148000000000000       -2.269253996000000     
    1.152000000000000       -2.268581127000000     
    1.156000000000000       -2.267893644000000     
    1.160000000000000       -2.267191692000000     
    1.164000000000000       -2.266475418000000     
    1.168000000000000       -2.265744967000000     
    1.172000000000000       -2.265000480000000     
    1.176000000000000       -2.264242097000000     
    1.180000000000000       -2.263469957000000     
    1.184000000000000       -2.262684198000000     
    1.188000000000000       -2.261884954000000     
    1.192000000000000       -2.261072358000000     
    1.196000000000000       -2.260246543000000     
    1.200000000000000       -2.259407639000000     
    1.204000000000000       -2.258555773000000     
    1.208000000000000       -2.257691072000000     
    1.212000000000000       -2.256813661000000     
    1.216000000000000       -2.255923665000000     
    1.220000000000000       -2.255021203000000     
    1.224000000000000       -2.254106396000000     
    1.228000000000000       -2.253179363000000     
    1.232000000000000       -2.252240220000000     
    1.236000000000000       -2.251289081000000     
    1.240000000000000       -2.250326062000000     
    1.244000000000000       -2.249351272000000     
    1.248000000000000       -2.248364823000000     
    1.252000000000000       -2.247366823000000     
    1.256000000000000       -2.246357379000000     
    1.260000000000000       -2.245336597000000     
    1.264000000000000       -2.244304579000000     
    1.268000000000000       -2.243261429000000     
    1.272000000000000       -2.242207248000000     
    1.276000000000000       -2.241142133000000     
    1.280000000000000       -2.240066183000000     
    1.284000000000000       -2.238979495000000     
    1.288000000000000       -2.237882161000000     
    1.292000000000000       -2.236774276000000     
    1.296000000000000       -2.235655931000000     
    1.300000000000000       -2.234527215000000     
    1.304000000000000       -2.233388218000000     
    1.308000000000000       -2.232239026000000     
    1.312000000000000       -2.231079724000000     
    1.316000000000000       -2.229910396000000     
    1.320000000000000       -2.228731125000000     
    1.324000000000000       -2.227541992000000     
    1.328000000000000       -2.226343076000000     
    1.332000000000000       -2.225134456000000     
    1.336000000000000       -2.223916207000000     
    1.340000000000000       -2.222688405000000     
    1.344000000000000       -2.221451124000000     
    1.348000000000000       -2.220204436000000     
    1.352000000000000       -2.218948411000000     
    1.356000000000000       -2.217683120000000     
    1.360000000000000       -2.216408630000000     
    1.364000000000000       -2.215125007000000     
    1.368000000000000       -2.213832317000000     
    1.372000000000000       -2.212530623000000     
    1.376000000000000       -2.211219988000000     
    1.380000000000000       -2.209900473000000     
    1.384000000000000       -2.208572138000000     
    1.388000000000000       -2.207235040000000     
    1.392000000000000       -2.205889237000000     
    1.396000000000000       -2.204534784000000     
    1.400000000000000       -2.203171735000000     
    1.404000000000000       -2.201800144000000     
    1.408000000000000       -2.200420061000000     
    1.412000000000000       -2.199031537000000     
    1.416000000000000       -2.197634620000000     
    1.420000000000000       -2.196229359000000     
    1.424000000000000       -2.194815799000000     
    1.428000000000000       -2.193393986000000     
    1.432000000000000       -2.191963963000000     
    1.436000000000000       -2.190525773000000     
    1.440000000000000       -2.189079456000000     
    1.444000000000000       -2.187625053000000     
    1.448000000000000       -2.186162602000000     
    1.452000000000000       -2.184692140000000     
    1.456000000000000       -2.183213704000000     
    1.460000000000000       -2.181727329000000     
    1.464000000000000       -2.180233049000000     
    1.468000000000000       -2.178730895000000     
    1.472000000000000       -2.177220899000000     
    1.476000000000000       -2.175703091000000     
    1.480000000000000       -2.174177501000000     
    1.484000000000000       -2.172644155000000     
    1.488000000000000       -2.171103081000000     
    1.492000000000000       -2.169554304000000     
    1.496000000000000       -2.167997848000000     
    1.500000000000000       -2.166433737000000     
    1.504000000000000       -2.164861992000000     
